# omega/omega_{WG}     k_parallel [1/micrones], $\epsilon_2$ = 12, d = 20nm, find_zeros_Silica_Eduardo_Eqs_tot.py
3.00050062578e+00	1.42108065596e+02
3.00201501877e+00	1.42187026870e+02
3.00352941176e+00	1.42274467051e+02
3.00504380476e+00	1.42370125387e+02
3.00655819775e+00	1.42473752712e+02
3.00807259074e+00	1.42585110695e+02
3.00958698373e+00	1.42703971149e+02
3.01110137672e+00	1.42830115406e+02
3.01261576971e+00	1.42963333734e+02
3.01413016270e+00	1.43103424815e+02
3.01564455569e+00	1.43250195246e+02
3.01715894869e+00	1.43403459095e+02
3.01867334168e+00	1.43563037482e+02
3.02018773467e+00	1.43728758196e+02
3.02170212766e+00	1.43900455333e+02
3.02321652065e+00	1.44077968971e+02
3.02473091364e+00	1.44261144857e+02
3.02624530663e+00	1.44449834122e+02
3.02775969962e+00	1.44643893018e+02
3.02927409262e+00	1.44843182661e+02
3.03078848561e+00	1.45047568806e+02
3.03230287860e+00	1.45256921625e+02
3.03381727159e+00	1.45471115505e+02
3.03533166458e+00	1.45690028855e+02
3.03684605757e+00	1.45913543931e+02
3.03836045056e+00	1.46141546661e+02
3.03987484355e+00	1.46373926494e+02
3.04138923655e+00	1.46610576243e+02
3.04290362954e+00	1.46851391952e+02
3.04441802253e+00	1.47096272758e+02
3.04593241552e+00	1.47345120767e+02
3.04744680851e+00	1.47597840937e+02
3.04896120150e+00	1.47854340965e+02
3.05047559449e+00	1.48114531180e+02
3.05198998748e+00	1.48378324445e+02
3.05350438048e+00	1.48645636058e+02
3.05501877347e+00	1.48916383666e+02
3.05653316646e+00	1.49190487175e+02
3.05804755945e+00	1.49467868669e+02
3.05956195244e+00	1.49748452334e+02
3.06107634543e+00	1.50032164384e+02
3.06259073842e+00	1.50318932987e+02
3.06410513141e+00	1.50608688203e+02
3.06561952441e+00	1.50901361912e+02
3.06713391740e+00	1.51196887763e+02
3.06864831039e+00	1.51495201106e+02
3.07016270338e+00	1.51796238942e+02
3.07167709637e+00	1.52099939864e+02
3.07319148936e+00	1.52406244014e+02
3.07470588235e+00	1.52715093025e+02
3.07622027534e+00	1.53026429978e+02
3.07773466834e+00	1.53340199358e+02
3.07924906133e+00	1.53656347009e+02
3.08076345432e+00	1.53974820092e+02
3.08227784731e+00	1.54295567047e+02
3.08379224030e+00	1.54618537551e+02
3.08530663329e+00	1.54943682487e+02
3.08682102628e+00	1.55270953904e+02
3.08833541927e+00	1.55600304982e+02
3.08984981227e+00	1.55931690003e+02
3.09136420526e+00	1.56265064318e+02
3.09287859825e+00	1.56600384315e+02
3.09439299124e+00	1.56937607393e+02
3.09590738423e+00	1.57276691928e+02
3.09742177722e+00	1.57617597251e+02
3.09893617021e+00	1.57960283621e+02
3.10045056320e+00	1.58304712198e+02
3.10196495620e+00	1.58650845016e+02
3.10347934919e+00	1.58998644967e+02
3.10499374218e+00	1.59348075769e+02
3.10650813517e+00	1.59699101950e+02
3.10802252816e+00	1.60051688826e+02
3.10953692115e+00	1.60405802476e+02
3.11105131414e+00	1.60761409727e+02
3.11256570713e+00	1.61118478133e+02
3.11408010013e+00	1.61476975954e+02
3.11559449312e+00	1.61836872142e+02
3.11710888611e+00	1.62198136318e+02
3.11862327910e+00	1.62560738762e+02
3.12013767209e+00	1.62924650388e+02
3.12165206508e+00	1.63289842735e+02
3.12316645807e+00	1.63656287950e+02
3.12468085106e+00	1.64023958770e+02
3.12619524406e+00	1.64392828509e+02
3.12770963705e+00	1.64762871046e+02
3.12922403004e+00	1.65134060807e+02
3.13073842303e+00	1.65506372756e+02
3.13225281602e+00	1.65879782379e+02
3.13376720901e+00	1.66254265673e+02
3.13528160200e+00	1.66629799132e+02
3.13679599499e+00	1.67006359739e+02
3.13831038798e+00	1.67383924948e+02
3.13982478098e+00	1.67762472680e+02
3.14133917397e+00	1.68141981307e+02
3.14285356696e+00	1.68522429643e+02
3.14436795995e+00	1.68903796935e+02
3.14588235294e+00	1.69286062850e+02
3.14739674593e+00	1.69669207470e+02
3.14891113892e+00	1.70053211275e+02
3.15042553191e+00	1.70438055143e+02
3.15193992491e+00	1.70823720334e+02
3.15345431790e+00	1.71210188484e+02
3.15496871089e+00	1.71597441595e+02
3.15648310388e+00	1.71985462030e+02
3.15799749687e+00	1.72374232501e+02
3.15951188986e+00	1.72763736064e+02
3.16102628285e+00	1.73153956110e+02
3.16254067584e+00	1.73544876358e+02
3.16405506884e+00	1.73936480848e+02
3.16556946183e+00	1.74328753931e+02
3.16708385482e+00	1.74721680268e+02
3.16859824781e+00	1.75115244818e+02
3.17011264080e+00	1.75509432834e+02
3.17162703379e+00	1.75904229856e+02
3.17314142678e+00	1.76299621704e+02
3.17465581977e+00	1.76695594474e+02
3.17617021277e+00	1.77092134530e+02
3.17768460576e+00	1.77489228500e+02
3.17919899875e+00	1.77886863267e+02
3.18071339174e+00	1.78285025969e+02
3.18222778473e+00	1.78683703988e+02
3.18374217772e+00	1.79082884950e+02
3.18525657071e+00	1.79482556714e+02
3.18677096370e+00	1.79882707374e+02
3.18828535670e+00	1.80283325247e+02
3.18979974969e+00	1.80684398873e+02
3.19131414268e+00	1.81085917011e+02
3.19282853567e+00	1.81487868630e+02
3.19434292866e+00	1.81890242908e+02
3.19585732165e+00	1.82293029227e+02
3.19737171464e+00	1.82696217169e+02
3.19888610763e+00	1.83099796510e+02
3.20040050063e+00	1.83503757219e+02
3.20191489362e+00	1.83908089454e+02
3.20342928661e+00	1.84312783553e+02
3.20494367960e+00	1.84717830037e+02
3.20645807259e+00	1.85123219603e+02
3.20797246558e+00	1.85528943120e+02
3.20948685857e+00	1.85934991627e+02
3.21100125156e+00	1.86341356329e+02
3.21251564456e+00	1.86748028594e+02
3.21403003755e+00	1.87154999947e+02
3.21554443054e+00	1.87562262074e+02
3.21705882353e+00	1.87969806809e+02
3.21857321652e+00	1.88377626139e+02
3.22008760951e+00	1.88785712198e+02
3.22160200250e+00	1.89194057262e+02
3.22311639549e+00	1.89602653752e+02
3.22463078849e+00	1.90011494224e+02
3.22614518148e+00	1.90420571372e+02
3.22765957447e+00	1.90829878023e+02
3.22917396746e+00	1.91239407134e+02
3.23068836045e+00	1.91649151790e+02
3.23220275344e+00	1.92059105202e+02
3.23371714643e+00	1.92469260705e+02
3.23523153942e+00	1.92879611752e+02
3.23674593242e+00	1.93290151918e+02
3.23826032541e+00	1.93700874893e+02
3.23977471840e+00	1.94111774479e+02
3.24128911139e+00	1.94522844591e+02
3.24280350438e+00	1.94934079255e+02
3.24431789737e+00	1.95345472604e+02
3.24583229036e+00	1.95757018874e+02
3.24734668335e+00	1.96168712409e+02
3.24886107635e+00	1.96580547649e+02
3.25037546934e+00	1.96992519140e+02
3.25188986233e+00	1.97404621519e+02
3.25340425532e+00	1.97816849526e+02
3.25491864831e+00	1.98229197988e+02
3.25643304130e+00	1.98641661830e+02
3.25794743429e+00	1.99054236066e+02
3.25946182728e+00	1.99466915796e+02
3.26097622028e+00	1.99879696212e+02
3.26249061327e+00	2.00292572589e+02
3.26400500626e+00	2.00705540286e+02
3.26551939925e+00	2.01118594745e+02
3.26703379224e+00	2.01531731490e+02
3.26854818523e+00	2.01944946123e+02
3.27006257822e+00	2.02358234324e+02
3.27157697121e+00	2.02771591852e+02
3.27309136421e+00	2.03185014539e+02
3.27460575720e+00	2.03598498291e+02
3.27612015019e+00	2.04012039087e+02
3.27763454318e+00	2.04425632978e+02
3.27914893617e+00	2.04839276084e+02
3.28066332916e+00	2.05252964593e+02
3.28217772215e+00	2.05666694762e+02
3.28369211514e+00	2.06080462913e+02
3.28520650814e+00	2.06494265433e+02
3.28672090113e+00	2.06908098774e+02
3.28823529412e+00	2.07321959450e+02
3.28974968711e+00	2.07735844035e+02
3.29126408010e+00	2.08149749167e+02
3.29277847309e+00	2.08563671541e+02
3.29429286608e+00	2.08977607909e+02
3.29580725907e+00	2.09391555084e+02
3.29732165207e+00	2.09805509932e+02
3.29883604506e+00	2.10219469376e+02
3.30035043805e+00	2.10633430393e+02
3.30186483104e+00	2.11047390014e+02
3.30337922403e+00	2.11461345320e+02
3.30489361702e+00	2.11875293446e+02
3.30640801001e+00	2.12289231576e+02
3.30792240300e+00	2.12703156946e+02
3.30943679599e+00	2.13117066839e+02
3.31095118899e+00	2.13530958585e+02
3.31246558198e+00	2.13944829563e+02
3.31397997497e+00	2.14358677199e+02
3.31549436796e+00	2.14772498961e+02
3.31700876095e+00	2.15186292366e+02
3.31852315394e+00	2.15600054972e+02
3.32003754693e+00	2.16013784381e+02
3.32155193992e+00	2.16427478239e+02
3.32306633292e+00	2.16841134231e+02
3.32458072591e+00	2.17254750084e+02
3.32609511890e+00	2.17668323568e+02
3.32760951189e+00	2.18081852488e+02
3.32912390488e+00	2.18495334691e+02
3.33063829787e+00	2.18908768061e+02
3.33215269086e+00	2.19322150522e+02
3.33366708385e+00	2.19735480031e+02
3.33518147685e+00	2.20148754584e+02
3.33669586984e+00	2.20561972213e+02
3.33821026283e+00	2.20975130984e+02
3.33972465582e+00	2.21388228997e+02
3.34123904881e+00	2.21801264388e+02
3.34275344180e+00	2.22214235325e+02
3.34426783479e+00	2.22627140008e+02
3.34578222778e+00	2.23039976672e+02
3.34729662078e+00	2.23452743580e+02
3.34881101377e+00	2.23865439030e+02
3.35032540676e+00	2.24278061348e+02
3.35183979975e+00	2.24690608891e+02
3.35335419274e+00	2.25103080046e+02
3.35486858573e+00	2.25515473228e+02
3.35638297872e+00	2.25927786883e+02
3.35789737171e+00	2.26340019482e+02
3.35941176471e+00	2.26752169526e+02
3.36092615770e+00	2.27164235544e+02
3.36244055069e+00	2.27576216088e+02
3.36395494368e+00	2.27988109741e+02
3.36546933667e+00	2.28399915109e+02
3.36698372966e+00	2.28811630825e+02
3.36849812265e+00	2.29223255545e+02
3.37001251564e+00	2.29634787952e+02
3.37152690864e+00	2.30046226752e+02
3.37304130163e+00	2.30457570676e+02
3.37455569462e+00	2.30868818476e+02
3.37607008761e+00	2.31279968931e+02
3.37758448060e+00	2.31691020839e+02
3.37909887359e+00	2.32101973022e+02
3.38061326658e+00	2.32512824324e+02
3.38212765957e+00	2.32923573610e+02
3.38364205257e+00	2.33334219768e+02
3.38515644556e+00	2.33744761704e+02
3.38667083855e+00	2.34155198348e+02
3.38818523154e+00	2.34565528647e+02
3.38969962453e+00	2.34975751570e+02
3.39121401752e+00	2.35385866105e+02
3.39272841051e+00	2.35795871259e+02
3.39424280350e+00	2.36205766058e+02
3.39575719650e+00	2.36615549548e+02
3.39727158949e+00	2.37025220791e+02
3.39878598248e+00	2.37434778870e+02
3.40030037547e+00	2.37844222882e+02
3.40181476846e+00	2.38253551945e+02
3.40332916145e+00	2.38662765193e+02
3.40484355444e+00	2.39071861777e+02
3.40635794743e+00	2.39480840863e+02
3.40787234043e+00	2.39889701635e+02
3.40938673342e+00	2.40298443294e+02
3.41090112641e+00	2.40707065056e+02
3.41241551940e+00	2.41115566151e+02
3.41392991239e+00	2.41523945828e+02
3.41544430538e+00	2.41932203347e+02
3.41695869837e+00	2.42340337985e+02
3.41847309136e+00	2.42748349035e+02
3.41998748436e+00	2.43156235802e+02
3.42150187735e+00	2.43563997606e+02
3.42301627034e+00	2.43971633781e+02
3.42453066333e+00	2.44379143675e+02
3.42604505632e+00	2.44786526650e+02
3.42755944931e+00	2.45193782080e+02
3.42907384230e+00	2.45600909353e+02
3.43058823529e+00	2.46007907870e+02
3.43210262829e+00	2.46414777043e+02
3.43361702128e+00	2.46821516300e+02
3.43513141427e+00	2.47228125077e+02
3.43664580726e+00	2.47634602826e+02
3.43816020025e+00	2.48040949008e+02
3.43967459324e+00	2.48447163098e+02
3.44118898623e+00	2.48853244580e+02
3.44270337922e+00	2.49259192952e+02
3.44421777222e+00	2.49665007722e+02
3.44573216521e+00	2.50070688408e+02
3.44724655820e+00	2.50476234541e+02
3.44876095119e+00	2.50881645660e+02
3.45027534418e+00	2.51286921317e+02
3.45178973717e+00	2.51692061073e+02
3.45330413016e+00	2.52097064500e+02
3.45481852315e+00	2.52501931178e+02
3.45633291615e+00	2.52906660700e+02
3.45784730914e+00	2.53311252666e+02
3.45936170213e+00	2.53715706687e+02
3.46087609512e+00	2.54120022384e+02
3.46239048811e+00	2.54524199384e+02
3.46390488110e+00	2.54928237326e+02
3.46541927409e+00	2.55332135859e+02
3.46693366708e+00	2.55735894637e+02
3.46844806008e+00	2.56139513326e+02
3.46996245307e+00	2.56542991599e+02
3.47147684606e+00	2.56946329138e+02
3.47299123905e+00	2.57349525633e+02
3.47450563204e+00	2.57752580782e+02
3.47602002503e+00	2.58155494291e+02
3.47753441802e+00	2.58558265875e+02
3.47904881101e+00	2.58960895256e+02
3.48056320401e+00	2.59363382163e+02
3.48207759700e+00	2.59765726333e+02
3.48359198999e+00	2.60167927512e+02
3.48510638298e+00	2.60569985450e+02
3.48662077597e+00	2.60971899908e+02
3.48813516896e+00	2.61373670651e+02
3.48964956195e+00	2.61775297452e+02
3.49116395494e+00	2.62176780092e+02
3.49267834793e+00	2.62578118357e+02
3.49419274093e+00	2.62979312041e+02
3.49570713392e+00	2.63380360944e+02
3.49722152691e+00	2.63781264873e+02
3.49873591990e+00	2.64182023639e+02
3.50025031289e+00	2.64582637063e+02
3.50176470588e+00	2.64983104970e+02
3.50327909887e+00	2.65383427191e+02
3.50479349186e+00	2.65783603563e+02
3.50630788486e+00	2.66183633929e+02
3.50782227785e+00	2.66583518139e+02
3.50933667084e+00	2.66983256047e+02
3.51085106383e+00	2.67382847513e+02
3.51236545682e+00	2.67782292403e+02
3.51387984981e+00	2.68181590589e+02
3.51539424280e+00	2.68580741946e+02
3.51690863579e+00	2.68979746357e+02
3.51842302879e+00	2.69378603709e+02
3.51993742178e+00	2.69777313893e+02
3.52145181477e+00	2.70175876808e+02
3.52296620776e+00	2.70574292354e+02
3.52448060075e+00	2.70972560440e+02
3.52599499374e+00	2.71370680976e+02
3.52750938673e+00	2.71768653880e+02
3.52902377972e+00	2.72166479072e+02
3.53053817272e+00	2.72564156478e+02
3.53205256571e+00	2.72961686028e+02
3.53356695870e+00	2.73359067658e+02
3.53508135169e+00	2.73756301305e+02
3.53659574468e+00	2.74153386913e+02
3.53811013767e+00	2.74550324430e+02
3.53962453066e+00	2.74947113808e+02
3.54113892365e+00	2.75343755002e+02
3.54265331665e+00	2.75740247972e+02
3.54416770964e+00	2.76136592681e+02
3.54568210263e+00	2.76532789099e+02
3.54719649562e+00	2.76928837195e+02
3.54871088861e+00	2.77324736945e+02
3.55022528160e+00	2.77720488329e+02
3.55173967459e+00	2.78116091330e+02
3.55325406758e+00	2.78511545932e+02
3.55476846058e+00	2.78906852127e+02
3.55628285357e+00	2.79302009908e+02
3.55779724656e+00	2.79697019272e+02
3.55931163955e+00	2.80091880218e+02
3.56082603254e+00	2.80486592751e+02
3.56234042553e+00	2.80881156876e+02
3.56385481852e+00	2.81275572606e+02
3.56536921151e+00	2.81669839951e+02
3.56688360451e+00	2.82063958930e+02
3.56839799750e+00	2.82457929561e+02
3.56991239049e+00	2.82851751867e+02
3.57142678348e+00	2.83245425873e+02
3.57294117647e+00	2.83638951609e+02
3.57445556946e+00	2.84032329104e+02
3.57596996245e+00	2.84425558393e+02
3.57748435544e+00	2.84818639514e+02
3.57899874844e+00	2.85211572505e+02
3.58051314143e+00	2.85604357410e+02
3.58202753442e+00	2.85996994272e+02
3.58354192741e+00	2.86389483141e+02
3.58505632040e+00	2.86781824067e+02
3.58657071339e+00	2.87174017101e+02
3.58808510638e+00	2.87566062299e+02
3.58959949937e+00	2.87957959720e+02
3.59111389237e+00	2.88349709423e+02
3.59262828536e+00	2.88741311471e+02
3.59414267835e+00	2.89132765928e+02
3.59565707134e+00	2.89524072863e+02
3.59717146433e+00	2.89915232344e+02
3.59868585732e+00	2.90306244443e+02
3.60020025031e+00	2.90697109234e+02
3.60171464330e+00	2.91087826793e+02
3.60322903630e+00	2.91478397198e+02
3.60474342929e+00	2.91868820529e+02
3.60625782228e+00	2.92259096869e+02
3.60777221527e+00	2.92649226302e+02
3.60928660826e+00	2.93039208915e+02
3.61080100125e+00	2.93429044795e+02
3.61231539424e+00	2.93818734032e+02
3.61382978723e+00	2.94208276719e+02
3.61534418023e+00	2.94597672950e+02
3.61685857322e+00	2.94986922820e+02
3.61837296621e+00	2.95376026427e+02
3.61988735920e+00	2.95764983869e+02
3.62140175219e+00	2.96153795249e+02
3.62291614518e+00	2.96542460669e+02
3.62443053817e+00	2.96930980233e+02
3.62594493116e+00	2.97319354047e+02
3.62745932416e+00	2.97707582219e+02
3.62897371715e+00	2.98095664858e+02
3.63048811014e+00	2.98483602074e+02
3.63200250313e+00	2.98871393981e+02
3.63351689612e+00	2.99259040692e+02
3.63503128911e+00	2.99646542323e+02
3.63654568210e+00	3.00033898990e+02
3.63806007509e+00	3.00421110811e+02
3.63957446809e+00	3.00808177906e+02
3.64108886108e+00	3.01195100396e+02
3.64260325407e+00	3.01581878403e+02
3.64411764706e+00	3.01968512052e+02
3.64563204005e+00	3.02355001467e+02
3.64714643304e+00	3.02741346774e+02
3.64866082603e+00	3.03127548102e+02
3.65017521902e+00	3.03513605578e+02
3.65168961202e+00	3.03899519333e+02
3.65320400501e+00	3.04285289498e+02
3.65471839800e+00	3.04670916206e+02
3.65623279099e+00	3.05056399590e+02
3.65774718398e+00	3.05441739784e+02
3.65926157697e+00	3.05826936926e+02
3.66077596996e+00	3.06211991151e+02
3.66229036295e+00	3.06596902597e+02
3.66380475594e+00	3.06981671404e+02
3.66531914894e+00	3.07366297712e+02
3.66683354193e+00	3.07750781661e+02
3.66834793492e+00	3.08135123395e+02
3.66986232791e+00	3.08519323055e+02
3.67137672090e+00	3.08903380786e+02
3.67289111389e+00	3.09287296733e+02
3.67440550688e+00	3.09671071041e+02
3.67591989987e+00	3.10054703858e+02
3.67743429287e+00	3.10438195332e+02
3.67894868586e+00	3.10821545610e+02
3.68046307885e+00	3.11204754842e+02
3.68197747184e+00	3.11587823179e+02
3.68349186483e+00	3.11970750771e+02
3.68500625782e+00	3.12353537771e+02
3.68652065081e+00	3.12736184330e+02
3.68803504380e+00	3.13118690603e+02
3.68954943680e+00	3.13501056743e+02
3.69106382979e+00	3.13883282905e+02
3.69257822278e+00	3.14265369246e+02
3.69409261577e+00	3.14647315921e+02
3.69560700876e+00	3.15029123088e+02
3.69712140175e+00	3.15410790903e+02
3.69863579474e+00	3.15792319527e+02
3.70015018773e+00	3.16173709117e+02
3.70166458073e+00	3.16554959833e+02
3.70317897372e+00	3.16936071836e+02
3.70469336671e+00	3.17317045286e+02
3.70620775970e+00	3.17697880346e+02
3.70772215269e+00	3.18078577176e+02
3.70923654568e+00	3.18459135941e+02
3.71075093867e+00	3.18839556802e+02
3.71226533166e+00	3.19219839925e+02
3.71377972466e+00	3.19599985473e+02
3.71529411765e+00	3.19979993610e+02
3.71680851064e+00	3.20359864503e+02
3.71832290363e+00	3.20739598317e+02
3.71983729662e+00	3.21119195219e+02
3.72135168961e+00	3.21498655375e+02
3.72286608260e+00	3.21877978953e+02
3.72438047559e+00	3.22257166120e+02
3.72589486859e+00	3.22636217045e+02
3.72740926158e+00	3.23015131896e+02
3.72892365457e+00	3.23393910842e+02
3.73043804756e+00	3.23772554053e+02
3.73195244055e+00	3.24151061698e+02
3.73346683354e+00	3.24529433948e+02
3.73498122653e+00	3.24907670973e+02
3.73649561952e+00	3.25285772945e+02
3.73801001252e+00	3.25663740034e+02
3.73952440551e+00	3.26041572412e+02
3.74103879850e+00	3.26419270251e+02
3.74255319149e+00	3.26796833724e+02
3.74406758448e+00	3.27174263003e+02
3.74558197747e+00	3.27551558262e+02
3.74709637046e+00	3.27928719673e+02
3.74861076345e+00	3.28305747410e+02
3.75012515645e+00	3.28682641646e+02
3.75163954944e+00	3.29059402557e+02
3.75315394243e+00	3.29436030317e+02
3.75466833542e+00	3.29812525099e+02
3.75618272841e+00	3.30188887079e+02
3.75769712140e+00	3.30565116433e+02
3.75921151439e+00	3.30941213335e+02
3.76072590738e+00	3.31317177961e+02
3.76224030038e+00	3.31693010487e+02
3.76375469337e+00	3.32068711089e+02
3.76526908636e+00	3.32444279944e+02
3.76678347935e+00	3.32819717227e+02
3.76829787234e+00	3.33195023115e+02
3.76981226533e+00	3.33570197785e+02
3.77132665832e+00	3.33945241415e+02
3.77284105131e+00	3.34320154180e+02
3.77435544431e+00	3.34694936260e+02
3.77586983730e+00	3.35069587830e+02
3.77738423029e+00	3.35444109068e+02
3.77889862328e+00	3.35818500153e+02
3.78041301627e+00	3.36192761262e+02
3.78192740926e+00	3.36566892574e+02
3.78344180225e+00	3.36940894265e+02
3.78495619524e+00	3.37314766515e+02
3.78647058824e+00	3.37688509502e+02
3.78798498123e+00	3.38062123404e+02
3.78949937422e+00	3.38435608400e+02
3.79101376721e+00	3.38808964669e+02
3.79252816020e+00	3.39182192388e+02
3.79404255319e+00	3.39555291738e+02
3.79555694618e+00	3.39928262896e+02
3.79707133917e+00	3.40301106042e+02
3.79858573217e+00	3.40673821354e+02
3.80010012516e+00	3.41046409013e+02
3.80161451815e+00	3.41418869196e+02
3.80312891114e+00	3.41791202083e+02
3.80464330413e+00	3.42163407853e+02
3.80615769712e+00	3.42535486685e+02
3.80767209011e+00	3.42907438759e+02
3.80918648310e+00	3.43279264253e+02
3.81070087610e+00	3.43650963348e+02
3.81221526909e+00	3.44022536222e+02
3.81372966208e+00	3.44393983054e+02
3.81524405507e+00	3.44765304024e+02
3.81675844806e+00	3.45136499312e+02
3.81827284105e+00	3.45507569096e+02
3.81978723404e+00	3.45878513555e+02
3.82130162703e+00	3.46249332870e+02
3.82281602003e+00	3.46620027219e+02
3.82433041302e+00	3.46990596781e+02
3.82584480601e+00	3.47361041737e+02
3.82735919900e+00	3.47731362264e+02
3.82887359199e+00	3.48101558542e+02
3.83038798498e+00	3.48471630750e+02
3.83190237797e+00	3.48841579067e+02
3.83341677096e+00	3.49211403672e+02
3.83493116395e+00	3.49581104745e+02
