# omega/omega_{WG}     k_parallel [1/micrones], $\epsilon_2$ = 12, d = 20nm, find_zeros_Silica_Eduardo_Eqs_tot.py
5.01624530663e-03	2.37656960827e-01
1.00224906133e-02	4.75324515646e-01
1.50287359199e-02	7.13957082422e-01
2.00349812265e-02	9.54030637206e-01
2.50412265332e-02	1.19601400773e+00
3.00474718398e-02	1.44036666199e+00
3.50537171464e-02	1.68753663511e+00
4.00599624531e-02	1.93795862075e+00
4.50662077597e-02	2.19205224837e+00
5.00724530663e-02	2.45022056218e+00
5.50786983730e-02	2.71284871259e+00
6.00849436796e-02	2.98030286525e+00
6.50911889862e-02	3.25292932808e+00
7.00974342929e-02	3.53105389193e+00
7.51036795995e-02	3.81498137679e+00
8.01099249061e-02	4.10499537194e+00
8.51161702128e-02	4.40135815622e+00
9.01224155194e-02	4.70431078231e+00
9.51286608260e-02	5.01407330820e+00
1.00134906133e-01	5.33084515792e+00
1.05141151439e-01	5.65480559417e+00
1.10147396746e-01	5.98611428517e+00
1.15153642053e-01	6.32491194940e+00
1.20159887359e-01	6.67132106260e+00
1.25166132666e-01	7.02544661263e+00
1.30172377972e-01	7.38737688918e+00
1.35178623279e-01	7.75718429673e+00
1.40184868586e-01	8.13492618033e+00
1.45191113892e-01	8.52064565541e+00
1.50197359199e-01	8.91437243400e+00
1.55203604506e-01	9.31612364079e+00
1.60209849812e-01	9.72590461387e+00
1.65216095119e-01	1.01437096857e+01
1.70222340426e-01	1.05695229409e+01
1.75228585732e-01	1.10033189486e+01
1.80234831039e-01	1.14450634665e+01
1.85241076345e-01	1.18947141165e+01
1.90247321652e-01	1.23522210299e+01
1.95253566959e-01	1.28175274627e+01
2.00259812265e-01	1.32905703802e+01
2.05266057572e-01	1.37712810114e+01
2.10272302879e-01	1.42595853739e+01
2.15278548185e-01	1.47554047694e+01
2.20284793492e-01	1.52586562514e+01
2.25291038798e-01	1.57692530643e+01
2.30297284105e-01	1.62871050577e+01
2.35303529412e-01	1.68121190736e+01
2.40309774718e-01	1.73441993102e+01
2.45316020025e-01	1.78832476621e+01
2.50322265332e-01	1.84291640381e+01
2.55328510638e-01	1.89818466580e+01
2.60334755945e-01	1.95411923288e+01
2.65341001252e-01	2.01070967026e+01
2.70347246558e-01	2.06794545158e+01
2.75353491865e-01	2.12581598110e+01
2.80359737171e-01	2.18431061430e+01
2.85365982478e-01	2.24341867697e+01
2.90372227785e-01	2.30312948284e+01
2.95378473091e-01	2.36343234977e+01
3.00384718398e-01	2.42431661480e+01
3.05390963705e-01	2.48577164790e+01
3.10397209011e-01	2.54778686460e+01
3.15403454318e-01	2.61035173755e+01
3.20409699625e-01	2.67345580712e+01
3.25415944931e-01	2.73708869101e+01
3.30422190238e-01	2.80124009303e+01
3.35428435544e-01	2.86589981099e+01
3.40434680851e-01	2.93105774386e+01
3.45440926158e-01	2.99670389824e+01
3.50447171464e-01	3.06282839408e+01
3.55453416771e-01	3.12942146983e+01
3.60459662078e-01	3.19647348697e+01
3.65465907384e-01	3.26397493398e+01
3.70472152691e-01	3.33191642987e+01
3.75478397997e-01	3.40028872713e+01
3.80484643304e-01	3.46908271432e+01
3.85490888611e-01	3.53828941820e+01
3.90497133917e-01	3.60790000551e+01
3.95503379224e-01	3.67790578440e+01
4.00509624531e-01	3.74829820548e+01
4.05515869837e-01	3.81906886262e+01
4.10522115144e-01	3.89020949347e+01
4.15528360451e-01	3.96171197968e+01
4.20534605757e-01	4.03356834693e+01
4.25540851064e-01	4.10577076470e+01
4.30547096370e-01	4.17831154589e+01
4.35553341677e-01	4.25118314619e+01
4.40559586984e-01	4.32437816337e+01
4.45565832290e-01	4.39788933632e+01
4.50572077597e-01	4.47170954402e+01
4.55578322904e-01	4.54583180438e+01
4.60584568210e-01	4.62024927292e+01
4.65590813517e-01	4.69495524142e+01
4.70597058824e-01	4.76994313637e+01
4.75603304130e-01	4.84520651749e+01
4.80609549437e-01	4.92073907604e+01
4.85615794743e-01	4.99653463311e+01
4.90622040050e-01	5.07258713792e+01
4.95628285357e-01	5.14889066594e+01
5.00634530663e-01	5.22543941713e+01
5.05640775970e-01	5.30222771396e+01
5.10647021277e-01	5.37924999960e+01
5.15653266583e-01	5.45650083590e+01
5.20659511890e-01	5.53397490149e+01
5.25665757196e-01	5.61166698979e+01
5.30672002503e-01	5.68957200703e+01
5.35678247810e-01	5.76768497028e+01
5.40684493116e-01	5.84600100545e+01
5.45690738423e-01	5.92451534531e+01
5.50696983730e-01	6.00322332750e+01
5.55703229036e-01	6.08212039259e+01
5.60709474343e-01	6.16120208208e+01
5.65715719650e-01	6.24046403643e+01
5.70721964956e-01	6.31990199319e+01
5.75728210263e-01	6.39951178501e+01
5.80734455569e-01	6.47928933775e+01
5.85740700876e-01	6.55923066863e+01
5.90746946183e-01	6.63933188431e+01
5.95753191489e-01	6.71958917908e+01
6.00759436796e-01	6.79999883303e+01
6.05765682103e-01	6.88055721024e+01
6.10771927409e-01	6.96126075703e+01
6.15778172716e-01	7.04210600019e+01
6.20784418023e-01	7.12308954525e+01
6.25790663329e-01	7.20420807481e+01
6.30796908636e-01	7.28545834687e+01
6.35803153942e-01	7.36683719316e+01
6.40809399249e-01	7.44834151754e+01
6.45815644556e-01	7.52996829443e+01
6.50821889862e-01	7.61171456721e+01
6.55828135169e-01	7.69357744674e+01
6.60834380476e-01	7.77555410982e+01
6.65840625782e-01	7.85764179772e+01
6.70846871089e-01	7.93983781475e+01
6.75853116395e-01	8.02213952682e+01
6.80859361702e-01	8.10454436007e+01
6.85865607009e-01	8.18704979947e+01
6.90871852315e-01	8.26965338754e+01
6.95878097622e-01	8.35235272298e+01
7.00884342929e-01	8.43514545942e+01
7.05890588235e-01	8.51802930418e+01
7.10896833542e-01	8.60100201698e+01
7.15903078849e-01	8.68406140881e+01
7.20909324155e-01	8.76720534070e+01
7.25915569462e-01	8.85043172258e+01
7.30921814768e-01	8.93373851218e+01
7.35928060075e-01	9.01712371386e+01
7.40934305382e-01	9.10058537761e+01
7.45940550688e-01	9.18412159795e+01
7.50946795995e-01	9.26773051288e+01
7.55953041302e-01	9.35141030294e+01
7.60959286608e-01	9.43515919015e+01
7.65965531915e-01	9.51897543707e+01
7.70971777222e-01	9.60285734590e+01
7.75978022528e-01	9.68680325749e+01
7.80984267835e-01	9.77081155049e+01
7.85990513141e-01	9.85488064044e+01
7.90996758448e-01	9.93900897896e+01
7.96003003755e-01	1.00231950528e+02
8.01009249061e-01	1.01074373833e+02
8.06015494368e-01	1.01917345251e+02
8.11021739675e-01	1.02760850658e+02
8.16027984981e-01	1.03604876251e+02
8.21034230288e-01	1.04449408538e+02
8.26040475594e-01	1.05294434336e+02
8.31046720901e-01	1.06139940757e+02
8.36052966208e-01	1.06985915206e+02
8.41059211514e-01	1.07832345374e+02
8.46065456821e-01	1.08679219229e+02
8.51071702128e-01	1.09526525011e+02
8.56077947434e-01	1.10374251225e+02
8.61084192741e-01	1.11222386636e+02
8.66090438048e-01	1.12070920263e+02
8.71096683354e-01	1.12919841371e+02
8.76102928661e-01	1.13769139467e+02
8.81109173967e-01	1.14618804295e+02
8.86115419274e-01	1.15468825829e+02
8.91121664581e-01	1.16319194267e+02
8.96127909887e-01	1.17169900031e+02
9.01134155194e-01	1.18020933753e+02
9.06140400501e-01	1.18872286279e+02
9.11146645807e-01	1.19723948658e+02
9.16152891114e-01	1.20575912142e+02
9.21159136421e-01	1.21428168176e+02
9.26165381727e-01	1.22280708398e+02
9.31171627034e-01	1.23133524633e+02
9.36177872340e-01	1.23986608888e+02
9.41184117647e-01	1.24839953350e+02
9.46190362954e-01	1.25693550379e+02
9.51196608260e-01	1.26547392506e+02
9.56202853567e-01	1.27401472428e+02
9.61209098874e-01	1.28255783007e+02
9.66215344180e-01	1.29110317262e+02
9.71221589487e-01	1.29965068368e+02
9.76227834793e-01	1.30820029651e+02
9.81234080100e-01	1.31675194588e+02
9.86240325407e-01	1.32530556799e+02
9.91246570713e-01	1.33386110046e+02
9.96252816020e-01	1.34241848231e+02
1.00125906133e+00	1.35097765391e+02
1.00626530663e+00	1.35953855693e+02
1.01127155194e+00	1.36810113437e+02
1.01627779725e+00	1.37666533049e+02
1.02128404255e+00	1.38523109076e+02
1.02629028786e+00	1.39379836188e+02
1.03129653317e+00	1.40236709174e+02
1.03630277847e+00	1.41093722936e+02
1.04130902378e+00	1.41950872493e+02
1.04631526909e+00	1.42808152969e+02
1.05132151439e+00	1.43665559601e+02
1.05632775970e+00	1.44523087729e+02
1.06133400501e+00	1.45380732797e+02
1.06634025031e+00	1.46238490350e+02
1.07134649562e+00	1.47096356030e+02
1.07635274093e+00	1.47954325579e+02
1.08135898623e+00	1.48812394830e+02
1.08636523154e+00	1.49670559710e+02
1.09137147685e+00	1.50528816236e+02
1.09637772215e+00	1.51387160513e+02
1.10138396746e+00	1.52245588733e+02
1.10639021277e+00	1.53104097172e+02
1.11139645807e+00	1.53962682188e+02
1.11640270338e+00	1.54821340220e+02
1.12140894869e+00	1.55680067787e+02
1.12641519399e+00	1.56538861485e+02
1.13142143930e+00	1.57397717984e+02
1.13642768461e+00	1.58256634029e+02
1.14143392991e+00	1.59115606437e+02
1.14644017522e+00	1.59974632098e+02
1.15144642053e+00	1.60833707968e+02
1.15645266583e+00	1.61692831071e+02
1.16145891114e+00	1.62551998499e+02
1.16646515645e+00	1.63411207409e+02
1.17147140175e+00	1.64270455019e+02
1.17647764706e+00	1.65129738610e+02
1.18148389237e+00	1.65989055526e+02
1.18649013767e+00	1.66848403166e+02
1.19149638298e+00	1.67707778991e+02
1.19650262829e+00	1.68567180517e+02
1.20150887359e+00	1.69426605316e+02
1.20651511890e+00	1.70286051014e+02
1.21152136421e+00	1.71145515291e+02
1.21652760951e+00	1.72004995878e+02
1.22153385482e+00	1.72864490559e+02
1.22654010013e+00	1.73723997166e+02
1.23154634543e+00	1.74583513581e+02
1.23655259074e+00	1.75443037732e+02
1.24155883605e+00	1.76302567596e+02
1.24656508135e+00	1.77162101195e+02
1.25157132666e+00	1.78021636596e+02
1.25657757196e+00	1.78881171909e+02
1.26158381727e+00	1.79740705287e+02
1.26659006258e+00	1.80600234927e+02
1.27159630788e+00	1.81459759065e+02
1.27660255319e+00	1.82319275978e+02
1.28160879850e+00	1.83178783982e+02
1.28661504380e+00	1.84038281432e+02
1.29162128911e+00	1.84897766722e+02
1.29662753442e+00	1.85757238281e+02
1.30163377972e+00	1.86616694575e+02
1.30664002503e+00	1.87476134105e+02
1.31164627034e+00	1.88335555407e+02
1.31665251564e+00	1.89194957053e+02
1.32165876095e+00	1.90054337644e+02
1.32666500626e+00	1.90913695817e+02
1.33167125156e+00	1.91773030240e+02
1.33667749687e+00	1.92632339612e+02
1.34168374218e+00	1.93491622662e+02
1.34668998748e+00	1.94350878150e+02
1.35169623279e+00	1.95210104865e+02
1.35670247810e+00	1.96069301624e+02
1.36170872340e+00	1.96928467274e+02
1.36671496871e+00	1.97787600687e+02
1.37172121402e+00	1.98646700763e+02
1.37672745932e+00	1.99505766429e+02
1.38173370463e+00	2.00364796638e+02
1.38673994994e+00	2.01223790367e+02
1.39174619524e+00	2.02082746618e+02
1.39675244055e+00	2.02941664419e+02
1.40175868586e+00	2.03800542819e+02
1.40676493116e+00	2.04659380894e+02
1.41177117647e+00	2.05518177738e+02
1.41677742178e+00	2.06376932471e+02
1.42178366708e+00	2.07235644235e+02
1.42678991239e+00	2.08094312190e+02
1.43179615770e+00	2.08952935521e+02
1.43680240300e+00	2.09811513431e+02
1.44180864831e+00	2.10670045143e+02
1.44681489362e+00	2.11528529903e+02
1.45182113892e+00	2.12386966972e+02
1.45682738423e+00	2.13245355631e+02
1.46183362954e+00	2.14103695183e+02
1.46683987484e+00	2.14961984944e+02
1.47184612015e+00	2.15820224252e+02
1.47685236546e+00	2.16678412459e+02
1.48185861076e+00	2.17536548937e+02
1.48686485607e+00	2.18394633073e+02
1.49187110138e+00	2.19252664270e+02
1.49687734668e+00	2.20110641949e+02
1.50188359199e+00	2.20968565545e+02
1.50688983730e+00	2.21826434508e+02
1.51189608260e+00	2.22684248305e+02
1.51690232791e+00	2.23542006416e+02
1.52190857322e+00	2.24399708336e+02
1.52691481852e+00	2.25257353575e+02
1.53192106383e+00	2.26114941656e+02
1.53692730914e+00	2.26972472116e+02
1.54193355444e+00	2.27829944504e+02
1.54693979975e+00	2.28687358383e+02
1.55194604506e+00	2.29544713330e+02
1.55695229036e+00	2.30402008932e+02
1.56195853567e+00	2.31259244791e+02
1.56696478098e+00	2.32116420519e+02
1.57197102628e+00	2.32973535741e+02
1.57697727159e+00	2.33830590091e+02
1.58198351690e+00	2.34687583218e+02
1.58698976220e+00	2.35544514779e+02
1.59199600751e+00	2.36401384445e+02
1.59700225282e+00	2.37258191893e+02
1.60200849812e+00	2.38114936815e+02
1.60701474343e+00	2.38971618911e+02
1.61202098874e+00	2.39828237890e+02
1.61702723404e+00	2.40684793474e+02
1.62203347935e+00	2.41541285391e+02
1.62703972466e+00	2.42397713380e+02
1.63204596996e+00	2.43254077189e+02
1.63705221527e+00	2.44110376576e+02
1.64205846058e+00	2.44966611306e+02
1.64706470588e+00	2.45822781155e+02
1.65207095119e+00	2.46678885904e+02
1.65707719650e+00	2.47534925346e+02
1.66208344180e+00	2.48390899279e+02
1.66708968711e+00	2.49246807511e+02
1.67209593242e+00	2.50102649857e+02
1.67710217772e+00	2.50958426140e+02
1.68210842303e+00	2.51814136190e+02
1.68711466834e+00	2.52669779844e+02
1.69212091364e+00	2.53525356947e+02
1.69712715895e+00	2.54380867351e+02
1.70213340426e+00	2.55236310915e+02
1.70713964956e+00	2.56091687503e+02
1.71214589487e+00	2.56946996988e+02
1.71715214018e+00	2.57802239247e+02
1.72215838548e+00	2.58657414166e+02
1.72716463079e+00	2.59512521635e+02
1.73217087610e+00	2.60367561551e+02
1.73717712140e+00	2.61222533818e+02
1.74218336671e+00	2.62077438342e+02
1.74718961202e+00	2.62932275040e+02
1.75219585732e+00	2.63787043830e+02
1.75720210263e+00	2.64641744639e+02
1.76220834793e+00	2.65496377396e+02
1.76721459324e+00	2.66350942039e+02
1.77222083855e+00	2.67205438506e+02
1.77722708385e+00	2.68059866746e+02
1.78223332916e+00	2.68914226709e+02
1.78723957447e+00	2.69768518350e+02
1.79224581977e+00	2.70622741630e+02
1.79725206508e+00	2.71476896515e+02
1.80225831039e+00	2.72330982973e+02
1.80726455569e+00	2.73185000978e+02
1.81227080100e+00	2.74038950510e+02
1.81727704631e+00	2.74892831551e+02
1.82228329161e+00	2.75746644086e+02
1.82728953692e+00	2.76600388108e+02
1.83229578223e+00	2.77454063610e+02
1.83730202753e+00	2.78307670592e+02
1.84230827284e+00	2.79161209055e+02
1.84731451815e+00	2.80014679006e+02
1.85232076345e+00	2.80868080455e+02
1.85732700876e+00	2.81721413414e+02
1.86233325407e+00	2.82574677901e+02
1.86733949937e+00	2.83427873935e+02
1.87234574468e+00	2.84281001540e+02
1.87735198999e+00	2.85134060744e+02
1.88235823529e+00	2.85987051575e+02
1.88736448060e+00	2.86839974067e+02
1.89237072591e+00	2.87692828256e+02
1.89737697121e+00	2.88545614181e+02
1.90238321652e+00	2.89398331884e+02
1.90738946183e+00	2.90250981410e+02
1.91239570713e+00	2.91103562806e+02
1.91740195244e+00	2.91956076124e+02
1.92240819775e+00	2.92808521415e+02
1.92741444305e+00	2.93660898735e+02
1.93242068836e+00	2.94513208143e+02
1.93742693367e+00	2.95365449700e+02
1.94243317897e+00	2.96217623468e+02
1.94743942428e+00	2.97069729512e+02
1.95244566959e+00	2.97921767902e+02
1.95745191489e+00	2.98773738706e+02
1.96245816020e+00	2.99625641997e+02
1.96746440551e+00	3.00477477849e+02
1.97247065081e+00	3.01329246339e+02
1.97747689612e+00	3.02180947546e+02
1.98248314143e+00	3.03032581550e+02
1.98748938673e+00	3.03884148434e+02
1.99249563204e+00	3.04735648282e+02
1.99750187735e+00	3.05587081181e+02
2.00250812265e+00	3.06438447218e+02
2.00751436796e+00	3.07289746485e+02
2.01252061327e+00	3.08140979073e+02
2.01752685857e+00	3.08992145075e+02
2.02253310388e+00	3.09843244586e+02
2.02753934919e+00	3.10694277704e+02
2.03254559449e+00	3.11545244526e+02
2.03755183980e+00	3.12396145152e+02
2.04255808511e+00	3.13246979685e+02
2.04756433041e+00	3.14097748226e+02
2.05257057572e+00	3.14948450880e+02
2.05757682103e+00	3.15799087753e+02
2.06258306633e+00	3.16649658951e+02
2.06758931164e+00	3.17500164584e+02
2.07259555695e+00	3.18350604761e+02
2.07760180225e+00	3.19200979592e+02
2.08260804756e+00	3.20051289190e+02
2.08761429287e+00	3.20901533669e+02
2.09262053817e+00	3.21751713142e+02
2.09762678348e+00	3.22601827726e+02
2.10263302879e+00	3.23451877537e+02
2.10763927409e+00	3.24301862692e+02
2.11264551940e+00	3.25151783312e+02
2.11765176471e+00	3.26001639515e+02
2.12265801001e+00	3.26851431422e+02
2.12766425532e+00	3.27701159156e+02
2.13267050063e+00	3.28550822838e+02
2.13767674593e+00	3.29400422593e+02
2.14268299124e+00	3.30249958546e+02
2.14768923655e+00	3.31099430820e+02
2.15269548185e+00	3.31948839543e+02
2.15770172716e+00	3.32798184842e+02
2.16270797247e+00	3.33647466844e+02
2.16771421777e+00	3.34496685677e+02
2.17272046308e+00	3.35345841472e+02
2.17772670839e+00	3.36194934358e+02
2.18273295369e+00	3.37043964465e+02
2.18773919900e+00	3.37892931924e+02
2.19274544431e+00	3.38741836869e+02
2.19775168961e+00	3.39590679430e+02
2.20275793492e+00	3.40439459743e+02
2.20776418023e+00	3.41288177939e+02
2.21277042553e+00	3.42136834153e+02
2.21777667084e+00	3.42985428521e+02
2.22278291615e+00	3.43833961177e+02
2.22778916145e+00	3.44682432257e+02
2.23279540676e+00	3.45530841898e+02
2.23780165207e+00	3.46379190236e+02
2.24280789737e+00	3.47227477409e+02
2.24781414268e+00	3.48075703554e+02
2.25282038798e+00	3.48923868810e+02
2.25782663329e+00	3.49771973314e+02
2.26283287860e+00	3.50620017206e+02
2.26783912390e+00	3.51468000625e+02
2.27284536921e+00	3.52315923710e+02
2.27785161452e+00	3.53163786601e+02
2.28285785982e+00	3.54011589439e+02
2.28786410513e+00	3.54859332363e+02
2.29287035044e+00	3.55707015516e+02
2.29787659574e+00	3.56554639037e+02
2.30288284105e+00	3.57402203068e+02
2.30788908636e+00	3.58249707752e+02
2.31289533166e+00	3.59097153228e+02
2.31790157697e+00	3.59944539640e+02
2.32290782228e+00	3.60791867130e+02
2.32791406758e+00	3.61639135840e+02
2.33292031289e+00	3.62486345913e+02
2.33792655820e+00	3.63333497491e+02
2.34293280350e+00	3.64180590718e+02
2.34793904881e+00	3.65027625737e+02
2.35294529412e+00	3.65874602690e+02
2.35795153942e+00	3.66721521721e+02
2.36295778473e+00	3.67568382974e+02
2.36796403004e+00	3.68415186592e+02
2.37297027534e+00	3.69261932719e+02
2.37797652065e+00	3.70108621498e+02
2.38298276596e+00	3.70955253073e+02
2.38798901126e+00	3.71801827589e+02
2.39299525657e+00	3.72648345188e+02
2.39800150188e+00	3.73494806016e+02
2.40300774718e+00	3.74341210215e+02
2.40801399249e+00	3.75187557931e+02
2.41302023780e+00	3.76033849306e+02
2.41802648310e+00	3.76880084485e+02
2.42303272841e+00	3.77726263612e+02
2.42803897372e+00	3.78572386832e+02
2.43304521902e+00	3.79418454287e+02
2.43805146433e+00	3.80264466122e+02
2.44305770964e+00	3.81110422481e+02
2.44806395494e+00	3.81956323508e+02
2.45307020025e+00	3.82802169346e+02
2.45807644556e+00	3.83647960139e+02
2.46308269086e+00	3.84493696032e+02
2.46808893617e+00	3.85339377167e+02
2.47309518148e+00	3.86185003688e+02
2.47810142678e+00	3.87030575739e+02
2.48310767209e+00	3.87876093463e+02
2.48811391740e+00	3.88721557003e+02
2.49312016270e+00	3.89566966503e+02
2.49812640801e+00	3.90412322105e+02
2.50313265332e+00	3.91257623953e+02
2.50813889862e+00	3.92102872189e+02
2.51314514393e+00	3.92948066956e+02
2.51815138924e+00	3.93793208396e+02
2.52315763454e+00	3.94638296652e+02
2.52816387985e+00	3.95483331866e+02
2.53317012516e+00	3.96328314180e+02
2.53817637046e+00	3.97173243737e+02
2.54318261577e+00	3.98018120677e+02
2.54818886108e+00	3.98862945143e+02
2.55319510638e+00	3.99707717276e+02
2.55820135169e+00	4.00552437217e+02
2.56320759700e+00	4.01397105107e+02
2.56821384230e+00	4.02241721087e+02
2.57322008761e+00	4.03086285299e+02
2.57822633292e+00	4.03930797882e+02
2.58323257822e+00	4.04775258976e+02
2.58823882353e+00	4.05619668722e+02
2.59324506884e+00	4.06464027260e+02
2.59825131414e+00	4.07308334730e+02
2.60325755945e+00	4.08152591270e+02
2.60826380476e+00	4.08996797020e+02
2.61327005006e+00	4.09840952119e+02
2.61827629537e+00	4.10685056707e+02
2.62328254068e+00	4.11529110920e+02
2.62828878598e+00	4.12373114899e+02
2.63329503129e+00	4.13217068780e+02
2.63830127660e+00	4.14060972703e+02
2.64330752190e+00	4.14904826803e+02
2.64831376721e+00	4.15748631220e+02
2.65332001252e+00	4.16592386089e+02
2.65832625782e+00	4.17436091548e+02
2.66333250313e+00	4.18279747733e+02
2.66833874844e+00	4.19123354781e+02
2.67334499374e+00	4.19966912827e+02
2.67835123905e+00	4.20810422009e+02
2.68335748436e+00	4.21653882460e+02
2.68836372966e+00	4.22497294317e+02
2.69336997497e+00	4.23340657714e+02
2.69837622028e+00	4.24183972786e+02
2.70338246558e+00	4.25027239669e+02
2.70838871089e+00	4.25870458495e+02
2.71339495620e+00	4.26713629398e+02
2.71840120150e+00	4.27556752513e+02
2.72340744681e+00	4.28399827973e+02
2.72841369212e+00	4.29242855911e+02
2.73341993742e+00	4.30085836459e+02
2.73842618273e+00	4.30928769751e+02
2.74343242804e+00	4.31771655917e+02
2.74843867334e+00	4.32614495091e+02
2.75344491865e+00	4.33457287403e+02
2.75845116395e+00	4.34300032986e+02
2.76345740926e+00	4.35142731969e+02
