# E [eV]     zp [nm]     Re(lambda_p) [nm], $\kappa$ = 0.50$\omega_0$, $\kappa_r$ = 0.50$\kappa$, $\hbar\omega_o$=0.25 eV
# b = -10 nm, v = c/10, d = 1 nm, Silver, plot_optimum_zp_decay_rate_film.py
5.00000000000e-01	3.94835835836e+02	1.04226203769e+03
5.09236947791e-01	3.88235235235e+02	1.00440659155e+03
5.18473895582e-01	3.82734734735e+02	9.68551897699e+02
5.27710843373e-01	3.77234234234e+02	9.34559478926e+02
5.36947791165e-01	3.70633633634e+02	9.02302628477e+02
5.46184738956e-01	3.65133133133e+02	8.71665230154e+02
5.55421686747e-01	3.60732732733e+02	8.42540714064e+02
5.64658634538e-01	3.55232232232e+02	8.14831130496e+02
5.73895582329e-01	3.49731731732e+02	7.88446326905e+02
5.83132530120e-01	3.45331331331e+02	7.63303215092e+02
5.92369477912e-01	3.40930930931e+02	7.39325117462e+02
6.01606425703e-01	3.36530530531e+02	7.16441182767e+02
6.10843373494e-01	3.32130130130e+02	6.94585863012e+02
6.20080321285e-01	3.27729729730e+02	6.73698444327e+02
6.29317269076e-01	3.23329329329e+02	6.53722625528e+02
6.38554216867e-01	3.18928928929e+02	6.34606138922e+02
6.47791164659e-01	3.15628628629e+02	6.16300408565e+02
6.57028112450e-01	3.12328328328e+02	5.98760241829e+02
6.66265060241e-01	3.07927927928e+02	5.81943550605e+02
6.75502008032e-01	3.04627627628e+02	5.65811098935e+02
6.84738955823e-01	3.01327327327e+02	5.50326274253e+02
6.93975903614e-01	2.98027027027e+02	5.35454879745e+02
7.03212851406e-01	2.94726726727e+02	5.21164945620e+02
7.12449799197e-01	2.91426426426e+02	5.07426557364e+02
7.21686746988e-01	2.88126126126e+02	4.94211699243e+02
7.30923694779e-01	2.85925925926e+02	4.81494111527e+02
7.40160642570e-01	2.82625625626e+02	4.69249160087e+02
7.49397590361e-01	2.79325325325e+02	4.57453717143e+02
7.58634538153e-01	2.77125125125e+02	4.46086052096e+02
7.67871485944e-01	2.73824824825e+02	4.35125731475e+02
7.77108433735e-01	2.71624624625e+02	4.24553527145e+02
7.86345381526e-01	2.69424424424e+02	4.14351332000e+02
7.95582329317e-01	2.67224224224e+02	4.04502082459e+02
8.04819277108e-01	2.63923923924e+02	3.94989687134e+02
8.14056224900e-01	2.61723723724e+02	3.85798961131e+02
8.23293172691e-01	2.59523523524e+02	3.76915565461e+02
8.32530120482e-01	2.57323323323e+02	3.68325951131e+02
8.41767068273e-01	2.55123123123e+02	3.60017307497e+02
8.51004016064e-01	2.52922922923e+02	3.51977514505e+02
8.60240963855e-01	2.50722722723e+02	3.44195098510e+02
8.69477911647e-01	2.48522522523e+02	3.36659191346e+02
8.78714859438e-01	2.46322322322e+02	3.29359492392e+02
8.87951807229e-01	2.45222222222e+02	3.22286233383e+02
8.97188755020e-01	2.43022022022e+02	3.15430145736e+02
9.06425702811e-01	2.40821821822e+02	3.08782430196e+02
9.15662650602e-01	2.39721721722e+02	3.02334728606e+02
9.24899598394e-01	2.37521521522e+02	2.96079097643e+02
9.34136546185e-01	2.35321321321e+02	2.90007984358e+02
9.43373493976e-01	2.34221221221e+02	2.84114203379e+02
9.52610441767e-01	2.32021021021e+02	2.78390915661e+02
9.61847389558e-01	2.30920920921e+02	2.72831608643e+02
9.71084337349e-01	2.29820820821e+02	2.67430077728e+02
9.80321285141e-01	2.27620620621e+02	2.62180408975e+02
9.89558232932e-01	2.26520520521e+02	2.57076962912e+02
9.98795180723e-01	2.24320320320e+02	2.52114359394e+02
1.00803212851e+00	2.23220220220e+02	2.47287463423e+02
1.01726907631e+00	2.22120120120e+02	2.42591371872e+02
1.02650602410e+00	2.21020020020e+02	2.38021401030e+02
1.03574297189e+00	2.18819819820e+02	2.33573074929e+02
1.04497991968e+00	2.17719719720e+02	2.29242114383e+02
1.05421686747e+00	2.16619619620e+02	2.25024426698e+02
1.06345381526e+00	2.15519519520e+02	2.20916096008e+02
1.07269076305e+00	2.14419419419e+02	2.16913374183e+02
1.08192771084e+00	2.13319319319e+02	2.13012672283e+02
1.09116465863e+00	2.12219219219e+02	2.09210552514e+02
1.10040160643e+00	2.11119119119e+02	2.05503720653e+02
1.10963855422e+00	2.10019019019e+02	2.01889018915e+02
1.11887550201e+00	2.08918918919e+02	1.98363419228e+02
1.12811244980e+00	2.07818818819e+02	1.94924016891e+02
1.13734939759e+00	2.06718718719e+02	1.91568024592e+02
1.14658634538e+00	2.05618618619e+02	1.88292766761e+02
1.15582329317e+00	2.04518518519e+02	1.85095674241e+02
1.16506024096e+00	2.03418418418e+02	1.81974279244e+02
1.17429718876e+00	2.02318318318e+02	1.78926210594e+02
1.18353413655e+00	2.01218218218e+02	1.75949189224e+02
1.19277108434e+00	2.00118118118e+02	1.73041023911e+02
1.20200803213e+00	1.99018018018e+02	1.70199607250e+02
1.21124497992e+00	1.99018018018e+02	1.67422911836e+02
1.22048192771e+00	1.97917917918e+02	1.64708986641e+02
1.22971887550e+00	1.96817817818e+02	1.62055953597e+02
1.23895582329e+00	1.95717717718e+02	1.59462004336e+02
1.24819277108e+00	1.94617617618e+02	1.56925397120e+02
1.25742971888e+00	1.94617617618e+02	1.54444453906e+02
1.26666666667e+00	1.93517517518e+02	1.52017557580e+02
1.27590361446e+00	1.92417417417e+02	1.49643149317e+02
1.28514056225e+00	1.92417417417e+02	1.47319726079e+02
1.29437751004e+00	1.91317317317e+02	1.45045838236e+02
1.30361445783e+00	1.90217217217e+02	1.42820087306e+02
1.31285140562e+00	1.89117117117e+02	1.40641123804e+02
1.32208835341e+00	1.89117117117e+02	1.38507645196e+02
1.33132530120e+00	1.88017017017e+02	1.36418393954e+02
1.34056224900e+00	1.86916916917e+02	1.34372155699e+02
1.34979919679e+00	1.86916916917e+02	1.32367757443e+02
1.35903614458e+00	1.85816816817e+02	1.30404065902e+02
1.36827309237e+00	1.85816816817e+02	1.28479985895e+02
1.37751004016e+00	1.84716716717e+02	1.26594458821e+02
1.38674698795e+00	1.83616616617e+02	1.24746461197e+02
1.39598393574e+00	1.83616616617e+02	1.22935003273e+02
1.40522088353e+00	1.82516516517e+02	1.21159127706e+02
1.41445783133e+00	1.82516516517e+02	1.19417908294e+02
1.42369477912e+00	1.81416416416e+02	1.17710448769e+02
1.43293172691e+00	1.81416416416e+02	1.16035881645e+02
1.44216867470e+00	1.80316316316e+02	1.14393367112e+02
1.45140562249e+00	1.79216216216e+02	1.12782091987e+02
1.46064257028e+00	1.79216216216e+02	1.11201268706e+02
1.46987951807e+00	1.78116116116e+02	1.09650134361e+02
1.47911646586e+00	1.78116116116e+02	1.08127949779e+02
1.48835341365e+00	1.77016016016e+02	1.06633998645e+02
1.49759036145e+00	1.77016016016e+02	1.05167586654e+02
1.50682730924e+00	1.75915915916e+02	1.03728040708e+02
1.51606425703e+00	1.75915915916e+02	1.02314708140e+02
1.52530120482e+00	1.74815815816e+02	1.00926955979e+02
1.53453815261e+00	1.74815815816e+02	9.95641702369e+01
1.54377510040e+00	1.73715715716e+02	9.82257552309e+01
1.55301204819e+00	1.73715715716e+02	9.69111329328e+01
1.56224899598e+00	1.72615615616e+02	9.56197423442e+01
1.57148594378e+00	1.72615615616e+02	9.43510388981e+01
1.58072289157e+00	1.72615615616e+02	9.31044938850e+01
1.58995983936e+00	1.71515515516e+02	9.18795939012e+01
1.59919678715e+00	1.71515515516e+02	9.06758403210e+01
1.60843373494e+00	1.70415415415e+02	8.94927487886e+01
1.61767068273e+00	1.70415415415e+02	8.83298487307e+01
1.62690763052e+00	1.69315315315e+02	8.71866828891e+01
1.63614457831e+00	1.69315315315e+02	8.60628068703e+01
1.64538152610e+00	1.68215215215e+02	8.49577887143e+01
1.65461847390e+00	1.68215215215e+02	8.38712084788e+01
1.66385542169e+00	1.68215215215e+02	8.28026578405e+01
1.67309236948e+00	1.67115115115e+02	8.17517397114e+01
1.68232931727e+00	1.67115115115e+02	8.07180678696e+01
1.69156626506e+00	1.66015015015e+02	7.97012666047e+01
1.70080321285e+00	1.66015015015e+02	7.87009703758e+01
1.71004016064e+00	1.66015015015e+02	7.77168234834e+01
1.71927710843e+00	1.64914914915e+02	7.67484797530e+01
1.72851405622e+00	1.64914914915e+02	7.57956022301e+01
1.73775100402e+00	1.64914914915e+02	7.48578628877e+01
1.74698795181e+00	1.63814814815e+02	7.39349423436e+01
1.75622489960e+00	1.63814814815e+02	7.30265295882e+01
1.76546184739e+00	1.62714714715e+02	7.21323217227e+01
1.77469879518e+00	1.62714714715e+02	7.12520237064e+01
1.78393574297e+00	1.62714714715e+02	7.03853481133e+01
1.79317269076e+00	1.61614614615e+02	6.95320148973e+01
1.80240963855e+00	1.61614614615e+02	6.86917511661e+01
1.81164658635e+00	1.61614614615e+02	6.78642909627e+01
1.82088353414e+00	1.60514514515e+02	6.70493750550e+01
1.83012048193e+00	1.60514514515e+02	6.62467507330e+01
1.83935742972e+00	1.60514514515e+02	6.54561716120e+01
1.84859437751e+00	1.59414414414e+02	6.46773974446e+01
1.85783132530e+00	1.59414414414e+02	6.39101939369e+01
1.86706827309e+00	1.59414414414e+02	6.31543325733e+01
1.87630522088e+00	1.58314314314e+02	6.24095904454e+01
1.88554216867e+00	1.58314314314e+02	6.16757500881e+01
1.89477911647e+00	1.58314314314e+02	6.09525993209e+01
1.90401606426e+00	1.57214214214e+02	6.02399310938e+01
1.91325301205e+00	1.57214214214e+02	5.95375433398e+01
1.92248995984e+00	1.57214214214e+02	5.88452388311e+01
1.93172690763e+00	1.56114114114e+02	5.81628250409e+01
1.94096385542e+00	1.56114114114e+02	5.74901140093e+01
1.95020080321e+00	1.56114114114e+02	5.68269222138e+01
1.95943775100e+00	1.56114114114e+02	5.61730704443e+01
1.96867469880e+00	1.55014014014e+02	5.55283836817e+01
1.97791164659e+00	1.55014014014e+02	5.48926909810e+01
1.98714859438e+00	1.55014014014e+02	5.42658253576e+01
1.99638554217e+00	1.53913913914e+02	5.36476236781e+01
2.00562248996e+00	1.53913913914e+02	5.30379265535e+01
2.01485943775e+00	1.53913913914e+02	5.24365782369e+01
2.02409638554e+00	1.53913913914e+02	5.18434265238e+01
2.03333333333e+00	1.52813813814e+02	5.12583226556e+01
2.04257028112e+00	1.52813813814e+02	5.06811212266e+01
2.05180722892e+00	1.52813813814e+02	5.01116800935e+01
2.06104417671e+00	1.51713713714e+02	4.95498602876e+01
2.07028112450e+00	1.51713713714e+02	4.89955259305e+01
2.07951807229e+00	1.51713713714e+02	4.84485441512e+01
2.08875502008e+00	1.51713713714e+02	4.79087850071e+01
2.09799196787e+00	1.50613613614e+02	4.73761214064e+01
2.10722891566e+00	1.50613613614e+02	4.68504290333e+01
2.11646586345e+00	1.50613613614e+02	4.63315862757e+01
2.12570281124e+00	1.50613613614e+02	4.58194741545e+01
2.13493975904e+00	1.49513513514e+02	4.53139762553e+01
2.14417670683e+00	1.49513513514e+02	4.48149786626e+01
2.15341365462e+00	1.49513513514e+02	4.43223698953e+01
2.16265060241e+00	1.49513513514e+02	4.38360408445e+01
2.17188755020e+00	1.48413413413e+02	4.33558847129e+01
2.18112449799e+00	1.48413413413e+02	4.28817969563e+01
2.19036144578e+00	1.48413413413e+02	4.24136752267e+01
2.19959839357e+00	1.48413413413e+02	4.19514193169e+01
2.20883534137e+00	1.47313313313e+02	4.14949311068e+01
2.21807228916e+00	1.47313313313e+02	4.10441145116e+01
2.22730923695e+00	1.47313313313e+02	4.05988754308e+01
2.23654618474e+00	1.47313313313e+02	4.01591216994e+01
2.24578313253e+00	1.46213213213e+02	3.97247630399e+01
2.25502008032e+00	1.46213213213e+02	3.92957110163e+01
2.26425702811e+00	1.46213213213e+02	3.88718789887e+01
2.27349397590e+00	1.46213213213e+02	3.84531820697e+01
2.28273092369e+00	1.46213213213e+02	3.80395370819e+01
2.29196787149e+00	1.45113113113e+02	3.76308625165e+01
2.30120481928e+00	1.45113113113e+02	3.72270784931e+01
2.31044176707e+00	1.45113113113e+02	3.68281067208e+01
2.31967871486e+00	1.45113113113e+02	3.64338704600e+01
2.32891566265e+00	1.44013013013e+02	3.60442944857e+01
2.33815261044e+00	1.44013013013e+02	3.56593050513e+01
2.34738955823e+00	1.44013013013e+02	3.52788298541e+01
2.35662650602e+00	1.44013013013e+02	3.49027980009e+01
2.36586345382e+00	1.44013013013e+02	3.45311399753e+01
2.37510040161e+00	1.42912912913e+02	3.41637876052e+01
2.38433734940e+00	1.42912912913e+02	3.38006740320e+01
2.39357429719e+00	1.42912912913e+02	3.34417336797e+01
2.40281124498e+00	1.42912912913e+02	3.30869022254e+01
2.41204819277e+00	1.42912912913e+02	3.27361165706e+01
2.42128514056e+00	1.41812812813e+02	3.23893148132e+01
2.43052208835e+00	1.41812812813e+02	3.20464362196e+01
2.43975903614e+00	1.41812812813e+02	3.17074211990e+01
2.44899598394e+00	1.41812812813e+02	3.13722112766e+01
2.45823293173e+00	1.41812812813e+02	3.10407490690e+01
2.46746987952e+00	1.40712712713e+02	3.07129782593e+01
2.47670682731e+00	1.40712712713e+02	3.03888435732e+01
2.48594377510e+00	1.40712712713e+02	3.00682907559e+01
2.49518072289e+00	1.40712712713e+02	2.97512665490e+01
2.50441767068e+00	1.40712712713e+02	2.94377186687e+01
2.51365461847e+00	1.39612612613e+02	2.91275957840e+01
2.52289156627e+00	1.39612612613e+02	2.88208474957e+01
2.53212851406e+00	1.39612612613e+02	2.85174243162e+01
2.54136546185e+00	1.39612612613e+02	2.82172776491e+01
2.55060240964e+00	1.39612612613e+02	2.79203597699e+01
2.55983935743e+00	1.38512512513e+02	2.76266238070e+01
2.56907630522e+00	1.38512512513e+02	2.73360237233e+01
2.57831325301e+00	1.38512512513e+02	2.70485142980e+01
2.58755020080e+00	1.38512512513e+02	2.67640511090e+01
2.59678714859e+00	1.38512512513e+02	2.64825905156e+01
2.60602409639e+00	1.38512512513e+02	2.62040896421e+01
2.61526104418e+00	1.37412412412e+02	2.59285063611e+01
2.62449799197e+00	1.37412412412e+02	2.56557992776e+01
2.63373493976e+00	1.37412412412e+02	2.53859277137e+01
2.64297188755e+00	1.37412412412e+02	2.51188516931e+01
2.65220883534e+00	1.37412412412e+02	2.48545319262e+01
2.66144578313e+00	1.37412412412e+02	2.45929297960e+01
2.67068273092e+00	1.36312312312e+02	2.43340073436e+01
2.67991967871e+00	1.36312312312e+02	2.40777272548e+01
2.68915662651e+00	1.36312312312e+02	2.38240528459e+01
2.69839357430e+00	1.36312312312e+02	2.35729480516e+01
2.70763052209e+00	1.36312312312e+02	2.33243774110e+01
2.71686746988e+00	1.36312312312e+02	2.30783060559e+01
2.72610441767e+00	1.35212212212e+02	2.28346996982e+01
2.73534136546e+00	1.35212212212e+02	2.25935246179e+01
2.74457831325e+00	1.35212212212e+02	2.23547476514e+01
2.75381526104e+00	1.35212212212e+02	2.21183361801e+01
2.76305220884e+00	1.35212212212e+02	2.18842581191e+01
2.77228915663e+00	1.35212212212e+02	2.16524819065e+01
2.78152610442e+00	1.34112112112e+02	2.14229764924e+01
2.79076305221e+00	1.34112112112e+02	2.11957113287e+01
2.80000000000e+00	1.34112112112e+02	2.09706563588e+01
